# Gnuplot File : forces of 1 particle(s) Monitored
# 1st Column : time, others : particle(s) number 1 
0.01	0 -0.00285798 0	
0.02	0.000244594 -0.00255106 1.50035e-05	
0.03	0.000737587 -0.00212975 3.14634e-05	
0.04	0.00151722 -0.00156472 4.38866e-05	
0.05	0.00262938 -0.00082525 4.7059e-05	
0.06	0.00411578 0.000114159 3.73212e-05	
0.07	0.00600929 0.00127108 1.31033e-05	
0.08	0.00833289 0.00265474 -2.49648e-05	
0.09	0.0111003 0.00426669 -7.42459e-05	
0.1	0.014317 0.00610193 -0.000130478	
0.11	0.017982 0.00815027 -0.000188252	
0.12	0.0220884 0.0103976 -0.000241509	
0.13	0.0266256 0.0128273 -0.000284012	
0.14	0.0315797 0.015421 -0.00030976	
0.15	0.0369348 0.0181599 -0.000313317	
0.16	0.0426737 0.0210249 -0.000290065	
0.17	0.0487787 0.0239978 -0.00023637	
0.18	0.055232 0.0270613 -0.00014967	
0.19	0.0620162 0.0301994 -2.85013e-05	
0.2	0.0691143 0.0333972 0.000127532	
0.21	0.0765105 0.0366413 0.000317831	
0.22	0.0841899 0.0399199 0.00054091	
0.23	0.0921386 0.0432221 0.000794515	
0.24	0.100344 0.0465385 0.00107576	
0.25	0.108794 0.0498604 0.00138127	
0.26	0.11748 0.0531801 0.0017073	
0.27	0.12639 0.0564908 0.00204987	
0.28	0.135518 0.0597862 0.0024049	
0.29	0.144855 0.0630602 0.00276827	
0.3	0.154396 0.0663074 0.00313592	
0.31	0.164135 0.0695225 0.00350393	
0.32	0.174066 0.0727004 0.00386856	
0.33	0.184185 0.0758359 0.0042263	
0.34	0.194489 0.0789241 0.0045739	
0.35	0.204975 0.0819598 0.00490836	
0.36	0.215638 0.084938 0.00522698	
0.37	0.226477 0.0878534 0.00552731	
0.38	0.237489 0.0907006 0.00580719	
0.39	0.248672 0.0934742 0.00606471	
0.4	0.260023 0.0961684 0.00629819	
0.41	0.27154 0.0987776 0.00650618	
0.42	0.283221 0.101296 0.00668745	
0.43	0.295063 0.103717 0.00684092	
0.44	0.307064 0.106035 0.00696573	
0.45	0.319219 0.108243 0.00706111	
0.46	0.331527 0.110335 0.00712648	
0.47	0.343983 0.112304 0.00716134	
0.48	0.356583 0.114144 0.00716532	
0.49	0.369323 0.115849 0.00713812	
0.5	0.382197 0.11741 0.00707955	
0.51	0.395201 0.118822 0.0069895	
0.52	0.408328 0.120078 0.0068679	
0.53	0.421573 0.121171 0.00671478	
0.54	0.434927 0.122094 0.00653021	
0.55	0.448384 0.12284 0.00631433	
0.56	0.461937 0.123404 0.00606734	
0.57	0.475576 0.123779 0.00578949	
0.58	0.489293 0.123958 0.00548109	
0.59	0.503079 0.123935 0.0051425	
0.6	0.516925 0.123705 0.00477416	
0.61	0.530819 0.123261 0.00437653	
0.62	0.544753 0.122599 0.00395016	
0.63	0.558714 0.121713 0.00349565	
0.64	0.572693 0.120598 0.00301364	
0.65	0.586678 0.11925 0.00250486	
0.66	0.600658 0.117665 0.00197008	
0.67	0.61462 0.115838 0.00141013	
