# Gnuplot File : positions of 1 particle(s) Monitored
# 1st Column : time, others : particle(s) number 54 
0.01	-0.229226 -0.0331326 -0.00479637	
0.02	-0.229191 -0.0333254 -0.00479255	
0.03	-0.229147 -0.033569 -0.00478633	
0.04	-0.229096 -0.0338471 -0.00477711	
0.05	-0.22904 -0.034145 -0.0047644	
0.06	-0.228982 -0.0344498 -0.00474785	
0.07	-0.228924 -0.0347498 -0.0047272	
0.08	-0.228867 -0.0350351 -0.0047023	
0.09	-0.228814 -0.0352972 -0.00467308	
0.1	-0.228766 -0.035529 -0.00463954	
0.11	-0.228723 -0.0357245 -0.00460171	
0.12	-0.228687 -0.035879 -0.00455967	
0.13	-0.228659 -0.0359886 -0.00451356	
0.14	-0.22864 -0.0360506 -0.00446351	
0.15	-0.22863 -0.0360629 -0.0044097	
0.16	-0.228629 -0.0360241 -0.00435232	
0.17	-0.228637 -0.0359337 -0.00429157	
0.18	-0.228655 -0.0357914 -0.00422765	
0.19	-0.228683 -0.0355975 -0.00416078	
0.2	-0.228719 -0.0353527 -0.00409118	
0.21	-0.228764 -0.0350581 -0.00401905	
0.22	-0.228817 -0.0347147 -0.0039446	
0.23	-0.228878 -0.0343241 -0.00386804	
0.24	-0.228946 -0.0338878 -0.00378955	
0.25	-0.22902 -0.0334075 -0.00370931	
0.26	-0.2291 -0.032885 -0.0036275	
0.27	-0.229186 -0.0323218 -0.00354427	
0.28	-0.229276 -0.0317199 -0.00345977	
0.29	-0.22937 -0.0310809 -0.00337413	
0.3	-0.229467 -0.0304065 -0.00328748	
0.31	-0.229567 -0.0296984 -0.00319992	
0.32	-0.229669 -0.0289581 -0.00311155	
0.33	-0.229772 -0.0281871 -0.00302247	
0.34	-0.229876 -0.0273869 -0.00293277	
0.35	-0.22998 -0.0265586 -0.00284251	
0.36	-0.230084 -0.0257035 -0.00275177	
0.37	-0.230187 -0.0248228 -0.00266061	
0.38	-0.230289 -0.0239175 -0.00256911	
0.39	-0.230389 -0.0229885 -0.00247731	
0.4	-0.230487 -0.0220367 -0.00238529	
0.41	-0.230582 -0.021063 -0.0022931	
0.42	-0.230674 -0.020068 -0.0022008	
0.43	-0.230763 -0.0190523 -0.00210845	
0.44	-0.230847 -0.0180166 -0.00201612	
0.45	-0.230928 -0.0169613 -0.00192388	
0.46	-0.231004 -0.0158871 -0.0018318	
0.47	-0.231076 -0.0147941 -0.00173996	
0.48	-0.231142 -0.0136829 -0.00164844	
0.49	-0.231203 -0.0125538 -0.00155731	
0.5	-0.231258 -0.0114071 -0.00146667	
0.51	-0.231306 -0.010243 -0.00137661	
0.52	-0.231349 -0.00906195 -0.00128724	
0.53	-0.231384 -0.00786404 -0.00119864	
0.54	-0.231412 -0.00664954 -0.00111093	
0.55	-0.231433 -0.00541867 -0.00102421	
0.56	-0.231447 -0.00417166 -0.000938607	
0.57	-0.231452 -0.00290869 -0.000854227	
0.58	-0.231449 -0.00162999 -0.000771192	
0.59	-0.231437 -0.000335754 -0.000689623	
0.6	-0.231417 0.000973803 -0.000609644	
0.61	-0.231387 0.00229847 -0.000531381	
0.62	-0.231348 0.00363801 -0.000454961	
0.63	-0.231299 0.00499222 -0.000380512	
0.64	-0.23124 0.00636085 -0.000308164	
0.65	-0.231171 0.00774365 -0.000238045	
0.66	-0.231091 0.00914037 -0.000170284	
0.67	-0.231 0.0105507 -0.000105011	
