# Gnuplot File : positions of 1 particle(s) Monitored
# 1st Column : time, others : particle(s) number 1 
0.01	-0.0193883 -0.0509508 -0.0148245	
0.02	-0.0194263 -0.0509548 -0.0148252	
0.03	-0.0194743 -0.0509589 -0.0148269	
0.04	-0.019531 -0.0509635 -0.014829	
0.05	-0.0195957 -0.0509688 -0.0148312	
0.06	-0.0196677 -0.0509754 -0.0148329	
0.07	-0.0197464 -0.0509836 -0.0148337	
0.08	-0.0198315 -0.0509935 -0.0148334	
0.09	-0.0199223 -0.0510057 -0.0148316	
0.1	-0.0200187 -0.0510201 -0.0148279	
0.11	-0.0201203 -0.0510369 -0.0148223	
0.12	-0.0202269 -0.0510564 -0.0148145	
0.13	-0.0203382 -0.0510785 -0.0148043	
0.14	-0.0204542 -0.0511034 -0.0147917	
0.15	-0.0205747 -0.051131 -0.0147766	
0.16	-0.0206996 -0.0511613 -0.0147589	
0.17	-0.0208288 -0.0511944 -0.0147385	
0.18	-0.0209625 -0.0512303 -0.0147155	
0.19	-0.0211004 -0.0512687 -0.0146898	
0.2	-0.0212427 -0.0513098 -0.0146615	
0.21	-0.0213894 -0.0513533 -0.0146305	
0.22	-0.0215406 -0.0513993 -0.0145969	
0.23	-0.0216961 -0.0514476 -0.0145608	
0.24	-0.0218563 -0.0514981 -0.0145222	
0.25	-0.022021 -0.0515507 -0.0144811	
0.26	-0.0221904 -0.0516053 -0.0144376	
0.27	-0.0223645 -0.0516617 -0.0143917	
0.28	-0.0225434 -0.05172 -0.0143435	
0.29	-0.0227272 -0.0517798 -0.0142931	
0.3	-0.0229159 -0.0518412 -0.0142405	
0.31	-0.0231096 -0.0519039 -0.0141857	
0.32	-0.0233083 -0.0519679 -0.0141288	
0.33	-0.0235122 -0.0520331 -0.0140699	
0.34	-0.0237212 -0.0520993 -0.014009	
0.35	-0.0239353 -0.0521664 -0.0139461	
0.36	-0.0241547 -0.0522343 -0.0138813	
0.37	-0.0243794 -0.0523028 -0.0138146	
0.38	-0.0246093 -0.0523719 -0.0137461	
0.39	-0.0248445 -0.0524415 -0.0136758	
0.4	-0.025085 -0.0525113 -0.0136037	
0.41	-0.0253308 -0.0525814 -0.0135298	
0.42	-0.0255819 -0.0526516 -0.0134542	
0.43	-0.0258383 -0.0527217 -0.0133769	
0.44	-0.0260999 -0.0527917 -0.013298	
0.45	-0.0263669 -0.0528615 -0.0132173	
0.46	-0.026639 -0.0529309 -0.013135	
0.47	-0.0269164 -0.0529999 -0.0130511	
0.48	-0.0271989 -0.0530684 -0.0129655	
0.49	-0.0274866 -0.0531361 -0.0128783	
0.5	-0.0277793 -0.0532031 -0.0127895	
0.51	-0.0280772 -0.0532692 -0.0126992	
0.52	-0.02838 -0.0533344 -0.0126072	
0.53	-0.0286877 -0.0533984 -0.0125137	
0.54	-0.0290004 -0.0534613 -0.0124187	
0.55	-0.0293179 -0.0535229 -0.012322	
0.56	-0.0296402 -0.0535831 -0.0122239	
0.57	-0.0299671 -0.0536417 -0.0121242	
0.58	-0.0302987 -0.0536988 -0.012023	
0.59	-0.0306349 -0.0537542 -0.0119202	
0.6	-0.0309756 -0.0538078 -0.011816	
0.61	-0.0313208 -0.0538596 -0.0117103	
0.62	-0.0316702 -0.0539093 -0.0116031	
0.63	-0.032024 -0.0539569 -0.0114945	
0.64	-0.032382 -0.0540023 -0.0113844	
0.65	-0.032744 -0.0540455 -0.0112728	
0.66	-0.0331101 -0.0540863 -0.0111599	
0.67	-0.0334802 -0.0541246 -0.0110455	
